#Creator: pendulumEventBuffer
#Creation time: Thu Mar 30 12:09:25 2023
#Time	Period	Transit time
#[s]	[s]	[s]
2.995813	2.147375	0.011314
4.069428	2.147148	0.011348
5.142961	2.146964	0.011378
6.216392	2.146754	0.011420
7.289715	2.146527	0.011462
8.362919	2.146303	0.011498
9.436018	2.146083	0.011540
10.509002	2.145881	0.011580
11.581899	2.145682	0.011618
12.654684	2.145467	0.011660
13.727366	2.145255	0.011700
14.799939	2.145051	0.011738
15.872417	2.144855	0.011778
16.944794	2.144653	0.011816
18.017070	2.144444	0.011856
19.089238	2.144236	0.011900
20.161306	2.144033	0.011936
21.233271	2.143843	0.011974
22.305149	2.143661	0.012018
23.376932	2.143471	0.012060
24.448620	2.143283	0.012104
25.520215	2.143109	0.012138
26.591729	2.142914	0.012182
27.663129	2.142714	0.012230
28.734443	2.142541	0.012266
29.805670	2.142370	0.012308
30.876813	2.142188	0.012350
31.947858	2.142018	0.012388
33.018831	2.141848	0.012430
34.089706	2.141655	0.012472
35.160486	2.141480	0.012512
36.231186	2.141314	0.012556
37.301800	2.141133	0.012596
38.372319	2.140962	0.012638
39.442762	2.140806	0.012680
40.513125	2.140634	0.012726
41.583396	2.140462	0.012768
42.653587	2.140307	0.012806
43.723703	2.140133	0.012850
44.793720	2.139965	0.012892
45.863668	2.139809	0.012936
46.933529	2.139645	0.012982
48.003313	2.139493	0.013026
49.073022	2.139344	0.013064
50.142657	2.139179	0.013106
51.212201	2.139017	0.013158
52.281674	2.138870	0.013204
53.351071	2.138728	0.013246
54.420402	2.138564	0.013292
55.489635	2.138405	0.013334
56.558807	2.138264	0.013374
57.627899	2.138113	0.013418
58.696920	2.137966	0.013460
59.765865	2.137829	0.013506
60.834749	2.137686	0.013558
61.903551	2.137529	0.013602
62.972278	2.137388	0.013644
64.040939	2.137252	0.013690
65.109530	2.137108	0.013736
66.178047	2.136934	0.013778
67.246464	2.136794	0.013820
68.314841	2.136695	0.013866
69.383159	2.136576	0.013914
70.451417	2.136442	0.013962
71.519601	2.136286	0.014006
72.587703	2.136166	0.014050
73.655767	2.136030	0.014098
74.723733	2.135859	0.014142
75.791626	2.135743	0.014184
76.859476	2.135651	0.014232
77.927277	2.135514	0.014286
78.994990	2.135374	0.014336
80.062651	2.135269	0.014378
81.130259	2.135161	0.014422
82.197812	2.135025	0.014456
83.265284	2.134884	0.014500
84.332696	2.134761	0.014556
85.400045	2.134635	0.014606
86.467331	2.134520	0.014654
87.534565	2.134410	0.014698
88.601741	2.134290	0.014742
89.668855	2.134171	0.014786
90.735912	2.134049	0.014836
91.802904	2.133936	0.014892
92.869848	2.133821	0.014940
93.936725	2.133705	0.014986
95.003553	2.133631	0.015034
96.070356	2.133523	0.015084
97.137076	2.133365	0.015132
98.203721	2.133246	0.015182
99.270322	2.133142	0.015232
100.336863	2.133044	0.015278
101.403366	2.132956	0.015328
102.469819	2.132833	0.015378
103.536199	2.132706	0.015426
104.602525	2.132603	0.015474
105.668802	2.132492	0.015524
106.735017	2.132393	0.015574
107.801195	2.132300	0.015622
108.867317	2.132189	0.015670
109.933384	2.132071	0.015724
110.999388	2.131952	0.015776
112.065336	2.131847	0.015820
113.131235	2.131730	0.015870
114.197066	2.131622	0.015924
115.262857	2.131545	0.015978
116.328611	2.131440	0.016026
117.394297	2.131335	0.016070
118.459946	2.131261	0.016120
119.525558	2.131127	0.016172
120.591073	2.131021	0.016222
121.656579	2.130987	0.016270
122.722060	2.130895	0.016324
123.787474	2.130784	0.016376
124.852844	2.130668	0.016424
125.918142	2.130544	0.016472
126.983388	2.130471	0.016520
128.048613	2.130435	0.016574
129.113823	2.130350	0.016622
130.178963	2.130258	0.016666
131.244081	2.130193	0.016714
132.309156	2.130089	0.016764
133.374170	2.129965	0.016812
134.439121	2.129899	0.016862
135.504069	2.129850	0.016918
136.568971	2.129760	0.016974
137.633829	2.129701	0.017022
138.698672	2.129636	0.017072
139.763465	2.129513	0.017126
140.828185	2.129413	0.017178
141.892878	2.129350	0.017228
142.957535	2.129287	0.017282
144.022165	2.129194	0.017338
145.086729	2.129084	0.017394
146.151249	2.129030	0.017446
147.215759	2.128966	0.017490
148.280215	2.128885	0.017542
149.344644	2.128834	0.017596
150.409049	2.128752	0.017646
151.473396	2.128677	0.017696
152.537726	2.128610	0.017752
153.602006	2.128514	0.017808
154.666240	2.128443	0.017860
155.730449	2.128388	0.017914
156.794628	2.128330	0.017968
157.858779	2.128258	0.018022
158.922886	2.128148	0.018076
159.986927	2.128067	0.018134
161.050953	2.128001	0.018190
162.114928	2.127901	0.018236
163.178854	2.127855	0.018292
164.242783	2.127851	0.018358
165.306705	2.127756	0.018414
166.370539	2.127634	0.018466
167.434339	2.127581	0.018522
168.498120	2.127537	0.018580
169.561876	2.127457	0.018632
170.625577	2.127340	0.018686
171.689216	2.127276	0.018744
172.752853	2.127245	0.018806
173.816461	2.127180	0.018862
174.880033	2.127150	0.018914
175.943611	2.127099	0.018970
177.007132	2.127019	0.019024
178.070630	2.126961	0.019084
179.134093	2.126882	0.019142
180.197512	2.126827	0.019196
181.260920	2.126766	0.019256
182.324278	2.126679	0.019316
183.387599	2.126635	0.019378
184.450913	2.126590	0.019438
185.514189	2.126526	0.019502
186.577439	2.126434	0.019558
187.640623	2.126380	0.019614
188.703819	2.126356	0.019670
189.766979	2.126262	0.019726
190.830081	2.126173	0.019790
191.893152	2.126096	0.019848
192.956177	2.126055	0.019910
194.019207	2.126068	0.019970
195.082245	2.125989	0.020026
196.145196	2.125874	0.020088
197.208119	2.125837	0.020150
198.271033	2.125827	0.020210
199.333946	2.125784	0.020276
200.396817	2.125713	0.020338
201.459659	2.125660	0.020398
202.522477	2.125595	0.020458
203.585254	2.125513	0.020520
204.647990	2.125451	0.020584
205.710705	2.125408	0.020638
206.773398	2.125356	0.020704
207.836061	2.125300	0.020770
208.898698	2.125237	0.020824
209.961298	2.125143	0.020888
211.023841	2.125078	0.020958
212.086376	2.125054	0.021024
213.148895	2.125039	0.021086
214.211415	2.125008	0.021142
215.273903	2.124937	0.021210
216.336352	2.124876	0.021284
217.398779	2.124806	0.021346
218.461158	2.124746	0.021408
219.523525	2.124705	0.021470
220.585863	2.124657	0.021534
221.648182	2.124610	0.021604
222.710473	2.124561	0.021666
223.772743	2.124553	0.021734
224.835026	2.124495	0.021796
225.897238	2.124412	0.021860
226.959438	2.124403	0.021932
228.021641	2.124369	0.021998
229.083807	2.124274	0.022058
230.145915	2.124203	0.022126
231.208010	2.124166	0.022196
232.270081	2.124073	0.022266
233.332083	2.123996	0.022334
234.394077	2.124052	0.022394
235.456135	2.124044	0.022466
236.518121	2.123922	0.022538
237.580057	2.123798	0.022614
238.641919	2.123748	0.022678
239.703805	2.123743	0.022722
240.765662	2.123675	0.022784
241.827480	2.123629	0.022868
242.889291	2.123636	0.022934
243.951116	2.123612	0.023000
245.012903	2.123549	0.023058
246.074665	2.123506	0.023118
247.136409	2.123445	0.023190
248.198110	2.123380	0.023260
249.259789	2.123334	0.023334
250.321444	2.123260	0.023404
251.383049	2.123212	0.023478
252.444656	2.123202	0.023548
253.506251	2.123189	0.023614
254.567845	2.123152	0.023682
255.629403	2.123077	0.023754
256.690922	2.123028	0.023828
257.752431	2.123015	0.023898
258.813937	2.122990	0.023966
259.875421	2.122958	0.024034
260.936895	2.122920	0.024098
261.998341	2.122875	0.024190
263.059770	2.122807	0.024272
264.121148	2.122767	0.024332
265.182537	2.122756	0.024406
266.243904	2.122700	0.024484
267.305237	2.122636	0.024554
268.366540	2.122597	0.024624
269.427834	2.122584	0.024700
270.489124	2.122547	0.024772
271.550381	2.122500	0.024842
272.611624	2.122526	0.024916
273.672907	2.122541	0.024990
274.734165	2.122479	0.025062
275.795386	2.122361	0.025136
276.856526	2.122303	0.025204
277.917689	2.122315	0.025282
278.978841	2.122259	0.025370
280.039948	2.122218	0.025448
281.101059	2.122233	0.025522
282.162181	2.122197	0.025598
283.223256	2.122137	0.025668
284.284318	2.122082	0.025744
285.345338	2.122014	0.025824
286.406332	2.121938	0.025892
287.467276	2.121873	0.025968
288.528205	2.121864	0.026054
289.589140	2.121867	0.026136
290.650072	2.121848	0.026216
291.710988	2.121867	0.026296
292.771939	2.121869	0.026382
293.832857	2.121828	0.026470
294.893767	2.121781	0.026550
295.954638	2.121725	0.026632
297.015492	2.121695	0.026716
298.076333	2.121632	0.026798
299.137124	2.121594	0.026876
300.197927	2.121612	0.026950
301.258736	2.121564	0.027040
302.319491	2.121494	0.027122
303.380230	2.121473	0.027200
304.440964	2.121445	0.027276
305.501675	2.121401	0.027358
306.562365	2.121380	0.027450
307.623055	2.121334	0.027530
308.683699	2.121286	0.027598
309.744341	2.121301	0.027686
310.805000	2.121327	0.027784
311.865668	2.121267	0.027868
312.926267	2.121201	0.027966
313.986869	2.121181	0.028054
315.047448	2.121140	0.028116
316.108009	2.121123	0.028206
317.168571	2.121084	0.028310
318.229093	2.121012	0.028402
319.289583	2.120996	0.028490
320.350089	2.120998	0.028570
321.410581	2.120980	0.028662
322.471069	2.120969	0.028758
323.531550	2.120935	0.028852
324.592004	2.120826	0.028936
325.652376	2.120763	0.029032
326.712767	2.120760	0.029114
327.773136	2.120711	0.029200
328.833478	2.120732	0.029304
329.893868	2.120768	0.029396
330.954246	2.120742	0.029484
332.014610	2.120715	0.029568
333.074961	2.120647	0.029662
334.135257	2.120567	0.029754
335.195528	2.120496	0.029840
336.255753	2.120458	0.029946
337.315986	2.120476	0.030044
338.376229	2.120459	0.030130
339.436445	2.120432	0.030226
340.496661	2.120452	0.030318
341.556897	2.120392	0.030422
342.617053	2.120330	0.030522
343.677227	2.120337	0.030610
344.737390	2.120261	0.030704
345.797488	2.120214	0.030800
346.857604	2.120251	0.030900
347.917739	2.120229	0.031002
348.977833	2.120198	0.031098
350.037937	2.120186	0.031194
351.098019	2.120171	0.031302
352.158108	2.120141	0.031404
353.218160	2.120084	0.031500
354.278192	2.119992	0.031600
355.338152	2.119948	0.031696
356.398140	2.119992	0.031792
357.458144	2.119989	0.031892
358.518129	2.119942	0.031990
359.578086	2.119862	0.032092
360.637991	2.119843	0.032198
361.697929	2.119836	0.032298
362.757827	2.119788	0.032398
363.817717	2.119786	0.032506
364.877613	2.119741	0.032610
365.937458	2.119742	0.032712
366.997355	2.119737	0.032814
368.057195	2.119666	0.032914
369.117021	2.119618	0.033010
370.176813	2.119568	0.033114
371.236589	2.119576	0.033226
372.296389	2.119533	0.033330
373.356122	2.119483	0.033432
374.415872	2.119468	0.033536
375.475590	2.119427	0.033644
376.535299	2.119440	0.033754
377.595030	2.119442	0.033860
378.654741	2.119401	0.033970
379.714431	2.119360	0.034086
380.774101	2.119326	0.034190
381.833757	2.119286	0.034294
382.893387	2.119264	0.034402
383.953021	2.119250	0.034506
385.012637	2.119232	0.034618
386.072253	2.119218	0.034730
387.131855	2.119176	0.034842
388.191429	2.119159	0.034950
389.251014	2.119162	0.035052
390.310591	2.119141	0.035166
391.370155	2.119102	0.035282
392.429693	2.119086	0.035390
393.489241	2.119043	0.035494
394.548736	2.118988	0.035616
395.608229	2.118994	0.035726
396.667730	2.118983	0.035832
397.727212	2.118941	0.035952
398.786671	2.118908	0.036054
399.846120	2.118890	0.036172
400.905561	2.118840	0.036314
401.964960	2.118820	0.036416
403.024381	2.118834	0.036502
404.083794	2.118794	0.036640
405.143175	2.118745	0.036778
406.202539	2.118750	0.036870
407.261925	2.118745	0.036962
408.321284	2.118696	0.037096
409.380621	2.118672	0.037222
410.439956	2.118664	0.037348
411.499285	2.118631	0.037478
412.558587	2.118615	0.037610
413.617900	2.118619	0.037716
414.677206	2.118596	0.037804
415.736496	2.118556	0.037920
416.795762	2.118529	0.038044
417.855025	2.118486	0.038174
418.914248	2.118471	0.038296
419.973496	2.118483	0.038396
421.032731	2.118449	0.038522
422.091945	2.118432	0.038654
423.151163	2.118425	0.038782
424.210370	2.118393	0.038928
425.269556	2.118372	0.039068
426.328742	2.118348	0.039180
427.387904	2.118333	0.039280
428.447075	2.118323	0.039398
429.506227	2.118328	0.039530
430.565403	2.118315	0.039674
431.624542	2.118287	0.039812
432.683690	2.118247	0.039936
433.742789	2.118195	0.040042
434.801885	2.118207	0.040154
435.860996	2.118199	0.040304
436.920084	2.118172	0.040448
437.979168	2.118164	0.040568
439.038248	2.118136	0.040692
440.097304	2.118129	0.040840
441.156377	2.118119	0.040974
442.215423	2.118090	0.041102
443.274467	2.118069	0.041238
444.333492	2.118021	0.041352
445.392488	2.118001	0.041488
446.451493	2.118016	0.041626
447.510504	2.117964	0.041752
448.569457	2.117963	0.041894
449.628467	2.117957	0.042034
450.687414	2.117886	0.042172
451.746353	2.117890	0.042306
452.805304	2.117883	0.042456
453.864236	2.117851	0.042604
454.923155	2.117801	0.042730
455.982037	2.117788	0.042850
457.040943	2.117862	0.042986
458.099899	2.117831	0.043138
459.158774	2.117741	0.043280
460.217640	2.117728	0.043432
461.276502	2.117725	0.043572
462.335365	2.117702	0.043706
463.394204	2.117662	0.043860
464.453027	2.117660	0.044006
465.511864	2.117658	0.044140
466.570685	2.117626	0.044286
467.629490	2.117614	0.044436
468.688299	2.117605	0.044578
469.747095	2.117586	0.044714
470.805885	2.117565	0.044878
471.864660	2.117570	0.045044
472.923455	2.117557	0.045186
473.982217	2.117518	0.045330
475.040973	2.117508	0.045486
476.099725	2.117496	0.045630
477.158469	2.117470	0.045778
478.217195	2.117449	0.045930
479.275918	2.117426	0.046092
480.334621	2.117417	0.046262
481.393335	2.117409	0.046406
482.452030	2.117385	0.046556
483.510720	2.117342	0.046716
484.569372	2.117311	0.046900
485.628031	2.117329	0.047082
486.686701	2.117337	0.047182
487.745368	2.117305	0.047312
488.804006	2.117279	0.047500
489.862647	2.117255	0.047674
490.921261	2.117240	0.047830
491.979887	2.117229	0.048010
493.038490	2.117203	0.048160
494.097090	2.117198	0.048284
495.155688	2.117197	0.048472
496.214287	2.117181	0.048662
497.272869	2.117156	0.048826
498.331443	2.117130	0.048966
499.389999	2.117139	0.049110
500.448582	2.117131	0.049280
501.507130	2.117075	0.049440
502.565657	2.117031	0.049626
503.624161	2.116999	0.049838
504.682656	2.116989	0.050000
505.741150	2.116988	0.050172
506.799644	2.116971	0.050352
507.858121	2.116975	0.050522
508.916619	2.116970	0.050698
509.975091	2.116918	0.050878
511.033537	2.116900	0.051058
512.091991	2.116889	0.051242
513.150426	2.116842	0.051432
514.208833	2.116814	0.051602
515.267240	2.116793	0.051776
516.325626	2.116789	0.051956
517.384029	2.116772	0.052134
518.442398	2.116768	0.052324
519.500797	2.116731	0.052506
520.559129	2.116663	0.052686
521.617460	2.116652	0.052892
522.675781	2.116646	0.053086
523.734106	2.116608	0.053260
524.792389	2.116562	0.053438
525.850668	2.116571	0.053616
526.908960	2.116588	0.053812
527.967256	2.116534	0.053992
529.025494	2.116470	0.054176
530.083726	2.116464	0.054368
531.141958	2.116375	0.054544
532.200101	2.116297	0.054722
533.258255	2.116404	0.054914
534.316505	2.116322	0.055086
535.374577	2.116138	0.055254
536.432643	2.116155	0.055434
537.490732	2.116194	0.055608
538.548837	2.116181	0.055790
539.606913	2.116188	0.055974
540.665025	2.116200	0.056142
541.723113	2.116127	0.056322
542.781152	2.116099	0.056508
543.839212	2.116157	0.056712
544.897309	2.116139	0.056886
545.955351	2.116197	0.057054
547.013506	2.116263	0.057252
548.071614	2.116011	0.057440
549.129517	2.115875	0.057614
550.187489	2.115956	0.057798
551.245473	2.115962	0.057990
552.303451	2.115975	0.058166
553.361448	2.115975	0.058360
554.419426	2.115971	0.058552
555.477419	2.115942	0.058734
556.535368	2.115895	0.058920
557.593314	2.115876	0.059100
558.651244	2.115867	0.059304
559.709181	2.115861	0.059502
560.767105	2.115840	0.059686
561.825021	2.115840	0.059882
562.882945	2.115833	0.060066
563.940854	2.115774	0.060264
564.998719	2.115759	0.060458
566.056613	2.115752	0.060646
567.114471	2.115736	0.060846
568.172349	2.115737	0.061054
569.230208	2.115693	0.061240
570.288042	2.115648	0.061420
571.345856	2.115695	0.061608
572.403737	2.115681	0.061842
573.461537	2.115630	0.062066
574.519367	2.115632	0.062242
575.577169	2.115606	0.062438
576.634973	2.115575	0.062646
577.692744	2.115576	0.062856
578.750549	2.115583	0.063042
579.808327	2.115552	0.063234
580.866101	2.115261	0.063418
581.923588	2.115407	0.063652
582.981508	2.115757	0.063880
584.039345	2.115615	0.064046
585.097123	2.115437	0.064230
586.154782	2.115343	0.064408
587.212466	2.115405	0.064616
588.270187	2.115479	0.064830
589.327945	2.115479	0.065050
590.385666	2.115413	0.065244
591.443358	2.115296	0.065404
592.500962	2.115257	0.065592
593.558615	2.115288	0.065786
594.616250	2.115289	0.065984
595.673904	2.115342	0.066180
596.731592	2.115204	0.066392
597.789108	2.115124	0.066596
598.846716	2.115258	0.066752
599.904366	2.115255	0.066916
600.961971	2.115238	0.067162
602.019604	2.115252	0.067368
603.077223	2.115160	0.067554
604.134764	2.115166	0.067768
605.192389	2.115308	0.067934
606.250072	2.115232	0.068096
607.307621	2.115145	0.068298
608.365217	2.115142	0.068542
609.422763	2.115143	0.068718
610.480360	2.115176	0.068916
611.537939	2.115145	0.069150
612.595505	2.115096	0.069334
613.653035	2.115117	0.069534
614.710622	2.115148	0.069720
615.768183	2.115110	0.069906
616.825732	2.115056	0.070124
617.883239	2.115054	0.070346
618.940786	2.115067	0.070552
619.998306	2.115056	0.070764
621.055842	2.115038	0.070952
622.113344	2.115009	0.071152
623.170851	2.115013	0.071354
624.228357	2.115020	0.071550
625.285871	2.115003	0.071746
626.343360	2.114984	0.071956
627.400855	2.114991	0.072174
628.458351	2.115024	0.072366
629.515879	2.114990	0.072578
630.573341	2.114915	0.072786
631.630794	2.114919	0.072976
632.688260	2.114944	0.073204
633.745738	2.114883	0.073432
634.803143	2.114829	0.073646
635.860567	2.114900	0.073842
636.918043	2.114919	0.074042
637.975486	2.114838	0.074252
639.032881	2.114853	0.074458
640.090339	2.114878	0.074694
641.147759	2.114812	0.074890
642.205151	2.114799	0.075094
643.262558	2.114843	0.075328
644.319994	2.114828	0.075524
645.377386	2.114801	0.075740
646.434795	2.114817	0.075954
647.492203	2.114811	0.076166
648.549606	2.114765	0.076392
649.606968	2.114755	0.076604
650.664361	2.114761	0.076802
651.721729	2.114749	0.077014
652.779110	2.114707	0.077228
653.836436	2.114655	0.077444
654.893765	2.114634	0.077666
655.951070	2.114644	0.077876
657.008409	2.114638	0.078114
658.065708	2.114600	0.078336
659.123009	2.114597	0.078566
660.180305	2.114574	0.078790
661.237583	2.114526	0.078974
662.294831	2.114527	0.079146
663.352110	2.114502	0.079328
664.409333	2.114483	0.079546
665.466593	2.114497	0.079766
666.523830	2.114471	0.079964
667.581064	2.114501	0.080156
668.638331	2.114496	0.080354
669.695560	2.114474	0.080564
670.752805	2.114513	0.080782
671.810073	2.114434	0.080970
672.867239	2.114404	0.081162
673.924477	2.114448	0.081378
674.981687	2.114432	0.081574
676.038909	2.114450	0.081782
677.096137	2.114468	0.081998
678.153377	2.114462	0.082170
679.210599	2.114404	0.082346
680.267781	2.114385	0.082546
681.324984	2.114375	0.082744
682.382156	2.114370	0.082956
683.439354	2.114407	0.083180
684.496563	2.114406	0.083414
685.553760	2.114387	0.083636
686.610950	2.114340	0.083788
687.668100	2.114313	0.083952
688.725263	2.114334	0.084162
689.782434	2.114341	0.084368
690.839604	2.114344	0.084576
691.896778	2.114367	0.084812
692.953971	2.114330	0.085050
694.011108	2.114251	0.085220
695.068222	2.114198	0.085384
696.125306	2.114285	0.085600
697.182507	2.114311	0.085774
698.239617	2.114244	0.085978
699.296751	2.114252	0.086258
700.353869	2.114221	0.086474
701.410972	2.114233	0.086652
702.468102	2.114267	0.086836
703.525239	2.114260	0.087030
704.582362	2.114248	0.087252
705.639487	2.114208	0.087478
706.696570	2.114193	0.087664
707.753680	2.114181	0.087828
708.810751	2.114156	0.088010
709.867836	2.114188	0.088224
710.924939	2.114142	0.088430
711.981978	2.114086	0.088624
713.039025	2.114102	0.088826
714.096080	2.114128	0.089020
715.153153	2.114155	0.089230
716.210235	2.114131	0.089406
717.267284	2.114144	0.089520
718.324379	2.114139	0.089710
719.381423	2.114084	0.089978
720.438463	2.114069	0.090242
721.495492	2.114147	0.090476
722.552610	2.114193	0.090652
723.609685	2.114123	0.090818
724.666733	2.114084	0.090978
725.723769	2.114073	0.091194
726.780806	2.114085	0.091404
727.837854	2.114093	0.091604
728.894899	2.114067	0.091890
729.951921	2.114107	0.092098
731.009006	2.114125	0.092252
732.066046	2.114055	0.092476
733.123061	2.114037	0.092706
